time,frequency,confidence
0.000,0.000,nan
0.050,0.000,nan
0.100,0.000,nan
0.150,0.000,nan
0.200,0.000,nan
0.250,0.000,nan
0.300,0.000,nan
0.350,0.000,nan
0.400,0.000,nan
0.450,0.000,nan
0.500,0.000,nan
0.550,0.000,nan
0.600,0.000,nan
0.650,0.000,nan
0.700,32.274,0.130342
0.750,32.469,0.292041
0.800,32.667,0.038540
0.850,32.439,0.123893
0.900,32.099,0.011291
0.950,32.394,0.232037
1.000,32.168,0.272064
1.050,32.500,0.079551
1.100,32.187,0.027574
1.150,32.615,0.007057
1.200,32.029,0.078277
1.250,31.955,0.040743
1.300,32.470,0.035416
1.350,33.319,0.173712
1.400,36.325,0.039273
1.450,39.441,0.100677
1.500,42.972,0.314871
1.550,43.825,0.239233
1.600,47.671,0.086167
1.650,50.165,0.182577
1.700,51.576,0.035254
1.750,53.075,0.249058
1.800,53.476,0.050387
1.850,55.435,0.081777
1.900,57.371,0.045506
1.950,61.594,0.008382
2.000,67.274,0.210816
2.050,75.376,0.064486
2.100,82.285,0.147160
2.150,92.032,0.618179
2.200,98.297,0.518736
2.250,97.886,0.477017
2.300,97.864,0.685193
2.350,97.765,0.619973
2.400,97.781,0.645955
2.450,105.333,0.829183
2.500,114.458,0.643279
2.550,127.549,0.661249
2.600,144.376,0.684402
2.650,154.789,0.582017
2.700,168.768,0.734402
2.750,192.244,0.503995
2.800,197.174,0.629412
2.850,223.469,0.672172
2.900,247.954,0.660204
2.950,269.751,0.526558
3.000,295.495,0.899554
3.050,294.237,0.958068
3.100,294.162,0.974633
3.150,293.203,0.936122
3.200,292.758,0.913715
3.250,295.049,0.832829
3.300,294.394,0.785503
3.350,324.704,0.785494
3.400,370.252,0.876901
3.450,390.737,0.950997
3.500,390.785,0.921329
3.550,392.022,0.840939
3.600,389.163,0.929504
3.650,389.456,0.909145
3.700,392.443,0.568695
3.750,390.141,0.847075
3.800,390.489,0.938340
3.850,388.922,0.943406
3.900,388.762,0.927681
3.950,390.275,0.923393
4.000,369.336,0.936353
4.050,320.208,0.911780
4.100,294.699,0.710520
4.150,294.175,0.979919
4.200,294.436,0.960518
4.250,292.528,0.915512
4.300,292.551,0.943184
4.350,294.737,0.898023
4.400,293.367,0.764271
4.450,291.683,0.836892
4.500,292.354,0.820837
4.550,293.441,0.917612
4.600,293.594,0.849711
4.650,294.953,0.934447
4.700,295.153,0.966861
4.750,294.874,0.965070
4.800,307.033,0.909723
4.850,341.720,0.946783
4.900,387.234,0.647276
4.950,389.771,0.845108
5.000,390.495,0.542065
5.050,389.232,0.817445
5.100,385.987,0.672859
5.150,394.076,0.582912
5.200,404.221,0.450649
5.250,442.836,0.341512
5.300,485.440,0.310578
5.350,497.829,0.359805
5.400,493.023,0.369247
5.450,557.677,0.539870
5.500,586.254,0.847817
5.550,583.947,0.924632
5.600,593.243,0.915973
5.650,586.599,0.963416
5.700,584.907,0.954482
5.750,591.280,0.960791
5.800,588.316,0.966584
5.850,588.685,0.968885
5.900,589.123,0.970741
5.950,585.554,0.918871
6.000,587.262,0.796682
6.050,587.899,0.743835
6.100,585.030,0.797489
6.150,589.312,0.838393
6.200,587.995,0.894088
6.250,587.699,0.959837
6.300,589.770,0.933072
6.350,589.196,0.874001
6.400,590.011,0.918235
6.450,590.706,0.927312
6.500,590.370,0.712610
6.550,589.835,0.943115
6.600,523.107,0.855293
6.650,522.716,0.949196
6.700,519.508,0.928381
6.750,523.824,0.946100
6.800,521.403,0.929576
6.850,521.565,0.941112
6.900,522.954,0.943030
6.950,518.232,0.937887
7.000,521.160,0.947289
7.050,521.460,0.944590
7.100,524.125,0.951647
7.150,519.657,0.941563
7.200,519.876,0.957305
7.250,522.207,0.920054
7.300,518.810,0.945370
7.350,517.080,0.870378
7.400,489.141,0.808616
7.450,438.918,0.925510
7.500,437.964,0.930670
7.550,438.649,0.932715
7.600,439.288,0.943361
7.650,437.984,0.848920
7.700,459.351,0.796553
7.750,504.399,0.415273
7.800,522.408,0.904153
7.850,518.110,0.879604
7.900,522.977,0.913979
7.950,517.019,0.906418
8.000,522.253,0.907704
8.050,523.097,0.816343
8.100,519.688,0.890044
8.150,522.410,0.933738
8.200,522.652,0.935709
8.250,521.628,0.915365
8.300,517.980,0.949319
8.350,521.118,0.943216
8.400,522.717,0.919539
8.450,522.938,0.846827
8.500,517.211,0.525411
8.550,452.970,0.908702
8.600,438.021,0.920943
8.650,438.146,0.927508
8.700,438.910,0.920414
8.750,441.583,0.898449
8.800,442.635,0.442436
8.850,496.267,0.925227
8.900,524.448,0.954901
8.950,522.411,0.814688
9.000,524.978,0.874694
9.050,519.941,0.869931
9.100,479.210,0.675828
9.150,440.891,0.933601
9.200,439.588,0.868266
9.250,436.565,0.803094
9.300,418.298,0.708650
9.350,375.055,0.338138
9.400,366.235,0.709427
9.450,364.210,0.672176
9.500,359.795,0.364192
9.550,367.491,0.546463
9.600,357.102,0.900874
9.650,348.020,0.845939
9.700,324.770,0.890223
9.750,312.615,0.811250
9.800,302.369,0.466847
9.850,294.438,0.345960
9.900,293.409,0.893480
9.950,292.951,0.903398
10.000,294.051,0.888213
10.050,292.630,0.707583
10.100,293.804,0.539538
10.150,293.624,0.761681
10.200,293.489,0.797738
10.250,294.529,0.903000
10.300,294.330,0.861461
10.350,295.101,0.651719
10.400,293.272,0.832523
10.450,292.289,0.900917
10.500,294.284,0.923879
10.550,293.551,0.897259
10.600,292.199,0.928635
10.650,292.601,0.601407
10.700,292.916,0.887386
10.750,294.035,0.929139
10.800,293.367,0.659463
10.850,293.554,0.460691
10.900,292.935,0.709159
10.950,293.527,0.464312
11.000,291.286,0.182940
11.050,295.331,0.343435
11.100,294.109,0.316132
11.150,293.466,0.484220
11.200,287.928,0.179060
11.250,293.626,0.687879
11.300,296.118,0.432433
11.350,293.153,0.853996
11.400,293.001,0.737182
11.450,293.624,0.581742
11.500,293.556,0.894872
11.550,293.189,0.655708
11.600,291.907,0.767551
11.650,292.640,0.823583
11.700,294.179,0.803011
11.750,290.770,0.827001
11.800,292.286,0.400098
11.850,292.546,0.477741
11.900,292.812,0.352373
11.950,292.007,0.435527
12.000,292.658,0.487476
12.050,293.094,0.937668
12.100,290.301,0.516297
12.150,293.225,0.360844
12.200,291.830,0.306053
12.250,293.079,0.878782
12.300,293.077,0.950703
12.350,292.570,0.917043
12.400,293.821,0.949835
12.450,291.625,0.915641
12.500,293.723,0.787799
12.550,293.351,0.929841
12.600,293.082,0.940982
12.650,293.388,0.856196
12.700,293.218,0.935958
12.750,292.220,0.869173
12.800,294.308,0.957178
12.850,292.647,0.791198
12.900,293.355,0.099587
12.950,292.560,0.492207
13.000,293.738,0.747988
13.050,294.443,0.950014
13.100,292.123,0.824177
13.150,293.245,0.369302
13.200,291.101,0.147834
13.250,290.697,0.221544
13.300,294.519,0.533680
13.350,293.639,0.790731
13.400,290.418,0.512335
13.450,293.745,0.821636
13.500,291.248,0.749959
13.550,288.790,0.282246
13.600,293.668,0.388144
13.650,290.139,0.415049
13.700,294.123,0.646840
13.750,293.088,0.296670
13.800,294.428,0.242394
13.850,294.458,0.820832
13.900,294.155,0.831309
13.950,293.504,0.946894
14.000,293.997,0.902894
14.050,293.074,0.811041
14.100,293.265,0.934320
14.150,293.123,0.878352
14.200,292.416,0.844603
14.250,291.785,0.886911
14.300,293.946,0.758161
14.350,294.416,0.943274
14.400,293.563,0.934527
14.450,293.159,0.784742
14.500,292.411,0.694251
14.550,291.478,0.506988
14.600,293.604,0.912944
14.650,293.167,0.846962
14.700,292.321,0.624336
14.750,291.681,0.260829
14.800,292.027,0.365873
14.850,293.831,0.945932
14.900,294.643,0.840663
14.950,293.571,0.378385
15.000,293.792,0.338035
15.050,294.737,0.785017
15.100,293.649,0.926205
15.150,291.686,0.608824
15.200,293.117,0.275292
15.250,294.180,0.783793
15.300,294.252,0.880992
15.350,293.396,0.676913
15.400,292.713,0.828123
15.450,292.630,0.427190
15.500,293.974,0.528641
15.550,292.828,0.741207
15.600,293.297,0.859774
15.650,293.240,0.886927
15.700,291.852,0.800743
15.750,289.650,0.403558
15.800,292.761,0.549454
15.850,290.463,0.730271
15.900,293.107,0.521208
15.950,292.129,0.768417
16.000,291.077,0.666596
16.050,294.420,0.694645
16.100,290.157,0.440608
16.150,292.367,0.825577
16.200,292.692,0.318581
16.250,291.411,0.314901
16.300,292.014,0.265043
16.350,291.649,0.363360
16.400,293.754,0.916349
16.450,293.008,0.862645
16.500,294.906,0.644199
16.550,294.577,0.527397
16.600,293.766,0.367428
16.650,292.752,0.793682
16.700,293.486,0.570519
16.750,293.705,0.747194
16.800,293.488,0.666570
16.850,291.821,0.395211
16.900,293.748,0.676005
16.950,293.678,0.781569
17.000,294.116,0.449582
17.050,292.598,0.683844
17.100,296.061,0.571236
17.150,293.688,0.795013
17.200,292.360,0.582817
17.250,294.096,0.291342
17.300,291.281,0.415771
17.350,294.548,0.565364
17.400,294.086,0.564969
17.450,293.315,0.468628
17.500,289.989,0.399254
17.550,293.480,0.379339
17.600,294.692,0.449605
17.650,293.969,0.893880
17.700,293.115,0.909607
17.750,290.878,0.379067
17.800,294.495,0.863369
17.850,292.692,0.447578
17.900,294.031,0.166870
17.950,293.542,0.918297
18.000,293.664,0.724238
18.050,291.910,0.422936
18.100,293.107,0.514520
18.150,292.148,0.594500
18.200,294.253,0.972343
18.250,293.555,0.921854
18.300,292.920,0.609016
18.350,291.199,0.354978
18.400,293.881,0.874173
18.450,293.586,0.751034
18.500,295.823,0.536554
18.550,293.446,0.331480
18.600,290.477,0.356027
18.650,293.526,0.847918
18.700,293.494,0.936144
18.750,290.131,0.528382
18.800,294.126,0.441568
18.850,290.267,0.318454
18.900,292.084,0.297158
18.950,293.467,0.796410
19.000,291.436,0.419313
19.050,274.417,0.148832
19.100,262.298,0.170020
19.150,292.799,0.771508
19.200,293.659,0.958409
19.250,292.135,0.777701
19.300,291.083,0.418396
19.350,290.792,0.610850
19.400,289.818,0.765810
19.450,293.029,0.847542
19.500,293.088,0.613990
19.550,293.425,0.928154
19.600,292.389,0.771432
19.650,295.553,0.215990
19.700,293.793,0.935413
19.750,293.353,0.884620
19.800,292.769,0.800645
19.850,293.565,0.761376
19.900,292.229,0.455225
19.950,292.365,0.415865
20.000,292.887,0.823852
20.050,293.020,0.914391
20.100,293.056,0.776078
20.150,292.067,0.406585
20.200,293.079,0.678694
20.250,295.536,0.777314
20.300,294.753,0.773541
20.350,293.884,0.503742
20.400,295.079,0.819305
20.450,294.043,0.943170
20.500,293.059,0.662872
20.550,293.632,0.912022
20.600,294.882,0.944371
20.650,292.975,0.795873
20.700,293.916,0.962683
20.750,294.578,0.914697
20.800,322.120,0.367160
20.850,359.307,0.336535
20.900,360.477,0.181204
20.950,354.175,0.204762
21.000,359.184,0.630335
21.050,363.455,0.581984
21.100,359.473,0.611011
21.150,357.446,0.706945
21.200,369.579,0.641535
21.250,378.328,0.287707
21.300,390.029,0.899308
21.350,389.215,0.854801
21.400,390.377,0.662319
21.450,390.775,0.817140
21.500,392.318,0.840595
21.550,392.826,0.899630
21.600,390.238,0.824192
21.650,436.446,0.612990
21.700,437.488,0.373955
21.750,437.513,0.388130
21.800,436.897,0.421430
21.850,435.954,0.379542
21.900,439.495,0.828495
21.950,437.270,0.440243
22.000,438.675,0.583232
22.050,438.028,0.662902
22.100,438.336,0.475880
22.150,431.761,0.280804
22.200,413.126,0.115172
22.250,390.721,0.192520
22.300,391.377,0.331526
22.350,391.630,0.326290
22.400,391.941,0.219313
22.450,391.717,0.431624
22.500,389.484,0.709595
22.550,391.678,0.837641
22.600,389.067,0.884266
22.650,388.627,0.930664
22.700,389.163,0.927215
22.750,390.747,0.794416
22.800,389.298,0.916561
22.850,388.425,0.931983
22.900,388.687,0.923944
22.950,388.461,0.731817
23.000,390.426,0.549979
23.050,390.304,0.747656
23.100,390.471,0.843724
23.150,389.825,0.451281
23.200,388.818,0.736279
23.250,389.277,0.801454
23.300,389.235,0.783105
23.350,390.318,0.861994
23.400,389.508,0.850508
23.450,426.427,0.821440
23.500,494.827,0.775759
23.550,558.837,0.720445
23.600,593.586,0.526524
23.650,689.709,0.277776
23.700,785.061,0.142020
23.750,879.813,0.164286
23.800,975.459,0.216119
23.850,1106.570,0.325366
23.900,1172.199,0.316833
23.950,1173.197,0.450476
24.000,1167.108,0.517052
24.050,1167.370,0.331595
24.100,1171.835,0.506727
24.150,1169.551,0.683346
24.200,1164.662,0.777446
24.250,1173.015,0.550047
24.300,1173.060,0.464001
24.350,1162.820,0.577762
24.400,1173.699,0.382202
24.450,1172.643,0.538001
24.500,1167.472,0.461282
24.550,1172.815,0.628539
24.600,1168.432,0.895952
24.650,1170.028,0.801779
24.700,1173.243,0.645531
24.750,1173.695,0.321127
24.800,1108.636,0.429099
24.850,1037.021,0.756100
24.900,1019.673,0.563187
24.950,1018.204,0.518452
25.000,1034.062,0.886457
25.050,963.867,0.717914
25.100,820.518,0.740863
25.150,714.491,0.788502
25.200,665.355,0.325820
25.250,612.728,0.823361
25.300,520.202,0.852927
25.350,501.391,0.653311
25.400,434.882,0.226211
25.450,397.984,0.757094
25.500,344.398,0.737419
25.550,321.995,0.137415
25.600,290.227,0.723133
25.650,291.997,0.952075
25.700,293.587,0.957639
25.750,291.335,0.872373
25.800,291.011,0.902241
25.850,293.617,0.877541
25.900,292.781,0.876026
25.950,292.202,0.947721
26.000,291.995,0.946426
26.050,292.280,0.947374
26.100,291.758,0.956171
26.150,291.846,0.897437
26.200,292.081,0.921368
26.250,292.823,0.731497
26.300,290.260,0.892291
26.350,292.087,0.940892
26.400,291.935,0.930225
26.450,290.733,0.944774
26.500,291.606,0.912812
26.550,292.145,0.952299
26.600,291.852,0.898626
26.650,328.373,0.846800
26.700,326.314,0.746658
26.750,322.889,0.735159
26.800,328.022,0.306756
26.850,328.292,0.693665
26.900,330.113,0.571873
26.950,291.058,0.588466
27.000,292.617,0.767807
27.050,290.032,0.583492
27.100,328.045,0.535456
27.150,326.857,0.479909
27.200,325.735,0.471474
27.250,366.666,0.520618
27.300,392.284,0.256591
27.350,392.372,0.668038
27.400,376.238,0.289972
27.450,350.172,0.566229
27.500,333.542,0.552459
27.550,328.715,0.856314
27.600,328.920,0.640279
27.650,329.483,0.491155
27.700,323.359,0.130692
27.750,327.591,0.423860
27.800,326.314,0.343202
27.850,322.172,0.513757
27.900,323.682,0.700004
27.950,325.609,0.363382
28.000,326.082,0.182212
28.050,324.132,0.722024
28.100,323.826,0.492183
28.150,324.873,0.347944
28.200,323.823,0.252814
28.250,324.786,0.464688
28.300,326.721,0.161618
28.350,323.232,0.564393
28.400,321.071,0.443677
28.450,320.756,0.191987
28.500,321.214,0.216491
28.550,320.323,0.342630
28.600,319.430,0.128373
28.650,306.928,0.696514
28.700,299.745,0.093433
28.750,297.319,0.225752
28.800,294.396,0.797109
28.850,291.724,0.450157
28.900,290.500,0.415725
28.950,291.111,0.296097
29.000,287.854,0.661387
29.050,293.789,0.517489
29.100,292.471,0.615462
29.150,291.598,0.278761
29.200,293.823,0.218791
29.250,285.906,0.199918
29.300,293.021,0.467998
29.350,291.998,0.667256
29.400,290.976,0.677596
29.450,291.469,0.359479
29.500,288.477,0.120177
29.550,291.887,0.864520
29.600,292.612,0.933214
29.650,292.692,0.643485
29.700,292.187,0.608989
29.750,293.059,0.742673
29.800,293.722,0.774671
29.850,291.840,0.861647
29.900,292.778,0.903357
29.950,292.546,0.614193
30.000,292.065,0.883006
30.050,291.947,0.842289
30.100,292.686,0.619248
30.150,291.885,0.771497
30.200,293.652,0.830692
30.250,292.454,0.546417
30.300,284.446,0.597252
30.350,292.252,0.931704
30.400,292.208,0.864208
30.450,292.345,0.847501
30.500,292.915,0.917486
30.550,290.171,0.767050
30.600,293.379,0.913083
30.650,292.810,0.723882
30.700,292.141,0.736181
30.750,290.491,0.929168
30.800,292.423,0.898391
30.850,316.547,0.525340
30.900,351.103,0.882213
30.950,391.178,0.482308
31.000,390.166,0.620897
31.050,389.308,0.545304
31.100,390.171,0.806206
31.150,390.177,0.667408
31.200,377.385,0.870351
31.250,347.254,0.792936
31.300,331.824,0.238650
31.350,324.734,0.528326
31.400,297.344,0.307186
31.450,289.677,0.257688
31.500,291.133,0.538236
31.550,291.038,0.580055
31.600,292.935,0.629712
31.650,290.701,0.484709
31.700,291.997,0.567439
31.750,291.882,0.629678
31.800,290.379,0.864141
31.850,287.489,0.856984
31.900,293.268,0.567686
31.950,322.773,0.899113
32.000,373.111,0.879767
32.050,412.315,0.928511
32.100,470.514,0.877573
32.150,533.528,0.952759
32.200,586.588,0.932725
32.250,588.695,0.974935
32.300,581.449,0.962098
32.350,587.905,0.959631
32.400,588.316,0.971821
32.450,580.979,0.957863
32.500,585.153,0.960590
32.550,588.041,0.980584
32.600,579.819,0.936398
32.650,585.807,0.940551
32.700,589.600,0.982262
32.750,583.591,0.939167
32.800,586.970,0.964019
32.850,589.232,0.964088
32.900,586.686,0.909339
32.950,587.392,0.808410
33.000,587.773,0.467523
33.050,649.744,0.446147
33.100,585.262,0.217552
33.150,649.253,0.368027
33.200,659.996,0.381548
33.250,590.684,0.725686
33.300,524.800,0.740269
33.350,525.906,0.656584
33.400,527.697,0.636057
33.450,526.446,0.631980
33.500,534.217,0.279241
33.550,524.500,0.819060
33.600,525.786,0.913631
33.650,530.069,0.569419
33.700,522.979,0.881136
33.750,526.817,0.634923
33.800,534.005,0.776458
33.850,519.674,0.580944
33.900,549.143,0.411956
33.950,583.480,0.718247
34.000,584.271,0.740693
34.050,567.410,0.425500
34.100,532.068,0.369734
34.150,525.939,0.555890
34.200,523.454,0.458524
34.250,515.835,0.175243
34.300,486.842,0.236768
34.350,460.751,0.159116
34.400,435.365,0.886396
34.450,439.103,0.854058
34.500,438.571,0.828149
34.550,439.872,0.675919
34.600,438.031,0.806381
34.650,438.339,0.868670
34.700,439.966,0.488887
34.750,438.947,0.871488
34.800,431.648,0.168150
34.850,394.501,0.225083
34.900,441.279,0.790408
34.950,437.763,0.492431
35.000,437.328,0.369885
35.050,394.470,0.127674
35.100,440.495,0.573440
35.150,410.986,0.576879
35.200,393.942,0.643710
35.250,391.903,0.298186
35.300,436.425,0.609690
35.350,398.779,0.656266
35.400,392.710,0.599894
35.450,390.295,0.714643
35.500,436.492,0.853526
35.550,489.285,0.715244
35.600,493.670,0.704224
35.650,495.358,0.475982
35.700,492.430,0.644378
35.750,496.788,0.427714
35.800,494.527,0.862109
35.850,496.974,0.751156
35.900,494.536,0.819177
35.950,492.040,0.365631
36.000,490.048,0.540533
36.050,489.070,0.689384
36.100,444.438,0.825324
36.150,440.268,0.688879
36.200,438.385,0.411452
36.250,460.726,0.562225
36.300,492.255,0.402730
36.350,445.113,0.656125
36.400,439.387,0.544153
36.450,438.294,0.600415
36.500,438.366,0.755434
36.550,436.364,0.557242
36.600,438.886,0.877559
36.650,439.436,0.887412
36.700,439.487,0.928291
36.750,440.431,0.904557
36.800,437.828,0.508637
36.850,438.768,0.524170
36.900,436.798,0.443365
36.950,438.093,0.896852
37.000,438.530,0.832957
37.050,438.642,0.417406
37.100,437.495,0.202920
37.150,438.817,0.692743
37.200,438.751,0.485635
37.250,440.924,0.639556
37.300,439.362,0.452575
37.350,440.605,0.609450
37.400,438.771,0.755051
37.450,440.476,0.926316
37.500,440.185,0.791075
37.550,438.232,0.569335
37.600,436.269,0.557327
37.650,427.893,0.658729
37.700,416.039,0.503687
37.750,391.657,0.707917
37.800,395.574,0.298768
37.850,391.613,0.546782
37.900,352.087,0.773869
37.950,325.655,0.262732
38.000,293.389,0.651946
38.050,291.103,0.446970
38.100,292.408,0.410993
38.150,288.489,0.487013
38.200,291.689,0.656379
38.250,290.462,0.689020
38.300,291.446,0.537527
38.350,289.737,0.417231
38.400,320.785,0.567176
38.450,349.077,0.791345
38.500,388.034,0.692827
38.550,390.602,0.465551
38.600,388.436,0.506982
38.650,389.650,0.373002
38.700,390.104,0.780115
38.750,390.127,0.757189
38.800,390.044,0.432837
38.850,391.125,0.461391
38.900,390.326,0.757457
38.950,391.710,0.730422
39.000,390.005,0.327233
39.050,394.319,0.354131
39.100,390.549,0.149825
39.150,391.880,0.716377
39.200,433.026,0.651264
39.250,442.055,0.882393
39.300,434.889,0.889443
39.350,436.916,0.861671
39.400,438.305,0.505354
39.450,440.850,0.632853
39.500,438.826,0.806866
39.550,431.036,0.350348
39.600,436.106,0.817163
39.650,439.023,0.340183
39.700,464.736,0.219054
39.750,494.890,0.795582
39.800,490.899,0.902133
39.850,490.360,0.510852
39.900,490.441,0.507872
39.950,490.751,0.735813
40.000,491.579,0.934292
40.050,492.472,0.578065
40.100,489.619,0.685092
40.150,492.782,0.628844
40.200,490.143,0.770045
40.250,483.759,0.580682
40.300,457.248,0.629273
40.350,410.033,0.832394
40.400,392.751,0.638361
40.450,391.525,0.561135
40.500,393.950,0.420982
40.550,390.582,0.653078
40.600,392.509,0.625748
40.650,390.152,0.656246
40.700,393.764,0.797714
40.750,396.164,0.514582
40.800,437.952,0.451949
40.850,490.363,0.792412
40.900,489.920,0.518660
40.950,488.699,0.795643
41.000,481.755,0.587631
41.050,437.260,0.458213
41.100,477.033,0.384030
41.150,480.337,0.686182
41.200,433.232,0.700930
41.250,439.472,0.866935
41.300,434.044,0.605508
41.350,436.742,0.919588
41.400,433.006,0.430575
41.450,439.485,0.854634
41.500,438.686,0.686445
41.550,438.977,0.684702
41.600,439.073,0.884950
41.650,437.428,0.785279
41.700,490.430,0.893644
41.750,504.893,0.369041
41.800,486.357,0.411786
41.850,493.353,0.209544
41.900,522.481,0.232528
41.950,582.898,0.874565
42.000,580.470,0.185144
42.050,585.934,0.804823
42.100,585.046,0.630504
42.150,581.217,0.390979
42.200,585.836,0.502758
